datetime,atr20
2017-11-06,
2017-11-07,
2017-11-08,
2017-11-09,
2017-11-10,
2017-11-11,
2017-11-12,
2017-11-13,
2017-11-14,
2017-11-15,
2017-11-16,
2017-11-17,
2017-11-18,
2017-11-19,
2017-11-20,
2017-11-21,
2017-11-22,
2017-11-23,
2017-11-24,
2017-11-25,
2017-11-26,0.20792000000000002
2017-11-27,0.208184
2017-11-28,0.2053848
2017-11-29,0.22004556
2017-11-30,0.225443282
2017-12-01,0.22709111789999997
2017-12-02,0.22298156200499997
2017-12-03,0.22964248390474995
2017-12-04,0.23456535970951245
2017-12-05,0.23533709172403683
2017-12-06,0.24721023713783497
2017-12-07,0.25684472528094315
2017-12-08,0.273702489016896
2017-12-09,0.2916323645660512
2017-12-10,0.3037157463377486
2017-12-11,0.30500495902086117
2017-12-12,0.3040147110698181
2017-12-13,0.31256397551632714
2017-12-14,0.31963577674051075
2017-12-15,0.3741039879034852
2017-12-16,0.40054378850831096
2017-12-17,0.4857165990828954
2017-12-18,0.5289307691287506
2017-12-19,0.5620092306723131
2017-12-20,0.5849087691386975
2017-12-21,0.6191583306817625
2017-12-22,0.6856804141476743
2017-12-23,0.6927963934402905
2017-12-24,0.728156573768276
2017-12-25,0.7842987450798622
2017-12-26,0.967233807825869
2017-12-27,1.0708471174345755
2017-12-28,1.1398047615628468
2017-12-29,1.1534145234847044
2017-12-30,1.184708797310469
2017-12-31,1.1894983574449456
2018-01-01,1.1750234395726982
2018-01-02,1.1673272675940634
2018-01-03,1.1691809042143602
2018-01-04,1.1653018590036421
2018-01-05,1.49964176605346
2018-01-06,1.869664677750787
2018-01-07,2.0066764438632476
2018-01-08,2.1712476216700853
2018-01-09,2.271505240586581
2018-01-10,2.3056799785572517
2018-01-11,2.662790979629389
2018-01-12,2.8336514306479192
2018-01-13,2.8149588591155235
2018-01-14,2.8687109161597473
2018-01-15,2.93626037035176
2018-01-16,3.2673223518341716
2018-01-17,3.418951234242463
2018-01-18,3.3919886725303394
2018-01-19,3.3213342389038223
2018-01-20,3.248022526958631
2018-01-21,3.2469264006106995
2018-01-22,3.2289650805801644
2018-01-23,3.180666826551156
2018-01-24,3.106633485223598
2018-01-25,3.008381810962418
2018-01-26,2.9374077204142974
2018-01-27,2.8255873343935827
2018-01-28,2.7204829676739033
2018-01-29,2.641008819290208
2018-01-30,2.6024583783256974
2018-01-31,2.5221004594094123
2018-02-01,2.5369954364389415
2018-02-02,2.5825956646169943
2018-02-03,2.5420758813861446
2018-02-04,2.5020070873168376
2018-02-05,2.5029267329509954
2018-02-06,2.5316153963034456
2018-02-07,2.5028346264882733
2018-02-08,2.3970678951638598
2018-02-09,2.3632645004056667
2018-02-10,2.3289712753853835
2018-02-11,2.286522711616114
2018-02-12,2.2109865760353085
2018-02-13,2.131907247233543
2018-02-14,2.1101618848718657
2018-02-15,2.070233790628272
2018-02-16,2.0142221010968586
2018-02-17,1.9633159960420157
2018-02-18,1.9201901962399148
2018-02-19,1.856685686427919
2018-02-20,1.839851402106523
2018-02-21,1.806868832001197
2018-02-22,1.7761553904011371
2018-02-23,1.7438526208810803
2018-02-24,1.7140449898370262
2018-02-25,1.6568427403451749
2018-02-26,1.624495603327916
2018-02-27,1.6102608231615203
2018-02-28,1.5719877820034442
2018-03-01,1.5111633929032717
2018-03-02,1.4591752232581081
2018-03-03,1.4038314620952026
2018-03-04,1.3623298889904425
2018-03-05,1.3126433945409202
2018-03-06,1.2985862248138742
2018-03-07,1.3387269135731805
2018-03-08,1.3303405678945213
2018-03-09,1.3279285394997953
2018-03-10,1.3012571125248054
2018-03-11,1.2973442568985651
2018-03-12,1.2744170440536366
2018-03-13,1.3704211918509546
2018-03-14,1.4106651322584067
2018-03-15,1.3975618756454864
2018-03-16,1.3691837818632122
2018-03-17,1.3430495927700514
2018-03-18,1.3348971131315488
2018-03-19,1.3156522574749714
2018-03-20,1.2843046446012227
2018-03-21,1.2865044123711618
2018-03-22,1.2956791917526036
2018-03-23,1.3548952321649734
2018-03-24,1.4578004705567247
2018-03-25,1.4740554470288885
2018-03-26,1.5114076746774439
2018-03-27,1.5058372909435715
2018-03-28,1.4767954263963927
2018-03-29,1.484925655076573
2018-03-30,1.4729993723227444
2018-03-31,1.461029403706607
2018-04-01,1.4384979335212766
2018-04-02,1.4514980368452126
2018-04-03,1.466858135002952
2018-04-04,1.4679602282528041
2018-04-05,1.4224122168401638
2018-04-06,1.3857216059981556
2018-04-07,1.3378705256982477
2018-04-08,1.2915569994133353
2018-04-09,1.2789791494426686
2018-04-10,1.248580191970535
2018-04-11,1.2141511823720084
2018-04-12,1.2126436232534081
2018-04-13,1.2082064420907377
2018-04-14,1.1959261199862008
2018-04-15,1.1721298139868908
2018-04-16,1.1679583232875461
2018-04-17,1.1505104071231689
2018-04-18,1.1399348867670105
2018-04-19,1.1039381424286598
2018-04-20,1.0924462353072268
2018-04-21,1.1058239235418654
2018-04-22,1.0804677273647723
2018-04-23,1.0786643409965335
2018-04-24,1.1282761239467067
2018-04-25,1.2213623177493713
2018-04-26,1.2385192018619027
2018-04-27,1.2104882417688074
2018-04-28,1.211823829680367
2018-04-29,1.1980276381963484
2018-04-30,1.193626256286531
2018-05-01,1.1753999434722044
2018-05-02,1.1436249462985941
2018-05-03,1.1204436989836644
2018-05-04,1.0894165140344811
2018-05-05,1.052945688332757
2018-05-06,1.069743403916119
2018-05-07,1.0743262337203132
2018-05-08,1.0692699220342974
2018-05-09,1.1048064259325825
2018-05-10,1.1154511046359532
2018-05-11,1.1401235494041555
2018-05-12,1.1404073719339478
2018-05-13,1.1314270033372502
2018-05-14,1.1248556531703877
2018-05-15,1.1119228705118682
2018-05-16,1.1083217269862748
2018-05-17,1.091295640636961
2018-05-18,1.250525858605113
2018-05-19,1.2738295656748573
2018-05-20,1.2460130873911142
2018-05-21,1.2387374330215586
2018-05-22,1.2347455613704805
2018-05-23,1.2577532833019565
2018-05-24,1.2496006191368585
2018-05-25,1.2279305881800155
2018-05-26,1.1986290587710147
2018-05-27,1.1644176058324638
2018-05-28,1.1631467255408405
2018-05-29,1.1569843892637985
2018-05-30,1.1302701698006086
2018-05-31,1.1698566613105779
2018-06-01,1.1467138282450489
2018-06-02,1.1334781368327964
2018-06-03,1.1147892299911564
2018-06-04,1.1166997684915985
2018-06-05,1.1397747800670186
2018-06-06,1.1951210410636677
2018-06-07,1.2018649890104842
2018-06-08,1.1886667395599602
2018-06-09,1.181083402581962
2018-06-10,1.258024232452864
2018-06-11,1.285563020830221
2018-06-12,1.2862848697887097
2018-06-13,1.3298506262992742
2018-06-14,1.3233580949843105
2018-06-15,1.3095901902350948
2018-06-16,1.30111068072334
2018-06-17,1.3113001466871728
2018-06-18,1.300225139352814
2018-06-19,1.2762738823851734
2018-06-20,1.2749601882659147
2018-06-21,1.2869621788526189
2018-06-22,1.327114069909988
2018-06-23,1.2975833664144885
2018-06-24,1.353059198093764
2018-06-25,1.355066238189076
2018-06-26,1.3463029262796222
2018-06-27,1.3065577799656412
2018-06-28,1.2957298909673591
2018-06-29,1.279243396418991
2018-06-30,1.2600512265980415
2018-07-01,1.2300436652681395
2018-07-02,1.2055514820047324
2018-07-03,1.1850439079044959
2018-07-04,1.1457767125092713
2018-07-05,1.1247228768838076
2018-07-06,1.102191733039617
2018-07-07,1.098117146387636
2018-07-08,1.060211289068254
2018-07-09,1.0367457246148413
2018-07-10,1.0356134383840991
2018-07-11,1.021327766464894
2018-07-12,1.0190463781416494
2018-07-13,0.9943890592345669
2018-07-14,0.9626146062728385
2018-07-15,0.9379338759591964
2018-07-16,0.9548871821612366
2018-07-17,0.9607928230531747
2018-07-18,0.9742531819005159
2018-07-19,0.95861552280549
2018-07-20,0.9715847466652154
2018-07-21,0.9572355093319546
2018-07-22,0.9305887338653568
2018-07-23,0.9090592971720889
2018-07-24,0.8962663323134844
2018-07-25,0.9215780156978102
2018-07-26,0.9124441149129197
2018-07-27,0.9191319091672737
2018-07-28,0.93160531370891
2018-07-29,0.9392850480234645
2018-07-30,0.9409407956222912
2018-07-31,0.9488437558411766
2018-08-01,0.9477765680491178
2018-08-02,0.9421827396466618
2018-08-03,0.9265736026643286
2018-08-04,0.9262449225311122
2018-08-05,0.9163076764045566
2018-08-06,0.8958022925843286
2018-08-07,0.8898371779551122
2018-08-08,0.9062853190573565
2018-08-09,0.9027760531044885
2018-08-10,0.914322250449264
2018-08-11,0.9119361379268007
2018-08-12,0.8924993310304606
2018-08-13,0.9368693644789376
2018-08-14,0.9798608962549907
2018-08-15,0.9967278514422412
2018-08-16,0.979146458870129
2018-08-17,0.9891491359266226
2018-08-18,1.0161016791302915
2018-08-19,0.9977865951737768
2018-08-20,0.9807772654150879
2018-08-21,0.9566034021443334
2018-08-22,0.9622582320371167
2018-08-23,0.9375453204352608
2018-08-24,0.9247330544134976
2018-08-25,0.8979214016928228
2018-08-26,0.8794253316081816
2018-08-27,0.8960140650277724
2018-08-28,0.8906583617763837
2018-08-29,0.8870654436875646
2018-08-30,0.8852021715031864
2018-08-31,0.8628770629280269
2018-09-01,0.8510532097816256
2018-09-02,0.8302155492925443
2018-09-03,0.810404771827917
2018-09-04,0.7818245332365212
2018-09-05,0.8271633065746952
2018-09-06,0.8281601412459603
2018-09-07,0.8202221341836622
2018-09-08,0.823121027474479
2018-09-09,0.812679976100755
2018-09-10,0.7964509772957172
2018-09-11,0.7815634284309313
2018-09-12,0.7660952570093847
2018-09-13,0.7535504941589155
2018-09-14,0.7468129694509696
2018-09-15,0.7295723209784212
2018-09-16,0.7149987049295001
2018-09-17,0.718143769683025
2018-09-18,0.7039015811988736
2018-09-19,0.6971415021389299
2018-09-20,0.6878744270319833
2018-09-21,0.6820257056803841
2018-09-22,0.6786744203963649
2018-09-23,0.6609056993765468
2018-09-24,0.6504454144077193
2018-09-25,0.6528031436873333
2018-09-26,0.6396779865029666
2018-09-27,0.6314640871778183
2018-09-28,0.6236458828189273
2018-09-29,0.6103285886779808
2018-09-30,0.5926021592440818
2018-10-01,0.5742770512818777
2018-10-02,0.5875631987177838
2018-10-03,0.5821700387818945
2018-10-04,0.5649765368427997
2018-10-05,0.5638777100006597
2018-10-06,0.5570238245006267
2018-10-07,0.5461626332755954
2018-10-08,0.5288095016118156
2018-10-09,0.5203540265312249
2018-10-10,0.5050913252046636
2018-10-11,0.5387917589444304
2018-10-12,0.536982170997209
2018-10-13,0.5204930624473486
2018-10-14,0.5089634093249812
2018-10-15,0.5579852388587321
2018-10-16,0.5533309769157954
2018-10-17,0.5386644280700056
2018-10-18,0.5355112066665053
2018-10-19,0.51622064633318
2018-10-20,0.499159614016521
2018-10-21,0.482061633315695
2018-10-22,0.46645855164991024
2018-10-23,0.4565806240674146
2018-10-24,0.4404765928640439
2018-10-25,0.42719276322084176
2018-10-26,0.4139381250597997
2018-10-27,0.4001162188068097
2018-10-28,0.3881904078664692
2018-10-29,0.3866258874731457
2018-10-30,0.3742095930994884
2018-10-31,0.369174113444514
2018-11-01,0.36220040777228824
2018-11-02,0.35271538738367386
2018-11-03,0.34783961801449015
2018-11-04,0.35031763711376557
2018-11-05,0.34125675525807725
2018-11-06,0.33513391749517335
2018-11-07,0.32675722162041465
2018-11-08,0.3242443605393939
2018-11-09,0.31967214251242426
2018-11-10,0.30980853538680303
2018-11-11,0.30786810861746294
2018-11-12,0.30537970318658986
2018-11-13,0.30155571802726033
2018-11-14,0.34194793212589725
2018-11-15,0.37156053551960233
2018-11-16,0.38322750874362216
2018-11-17,0.3807961333064411
2018-11-18,0.378551326641119
2018-11-19,0.43194876030906304
2018-11-20,0.4750013222936099
2018-11-21,0.4848912561789294
2018-11-22,0.4934216933699829
2018-11-23,0.48823060870148377
2018-11-24,0.5159340782664096
2018-11-25,0.532537374353089
2018-11-26,0.5380705056354345
2018-11-27,0.5290969803536627
2018-11-28,0.5264571313359796
2018-11-29,0.5256392747691806
2018-11-30,0.5240873110307216
2018-12-01,0.5175529454791855
2018-12-02,0.5032102982052262
2018-12-03,0.4923297832949649
2018-12-04,0.5316782941302166
2018-12-05,0.5499693794237057
2018-12-06,0.5854209104525204
2018-12-07,0.6001348649298943
2018-12-08,0.5951681216833996
2018-12-09,0.5895897155992296
2018-12-10,0.583610229819268
2018-12-11,0.5759047183283046
2018-12-12,0.5676594824118893
2018-12-13,0.5611265082912947
2018-12-14,0.54907018287673
2018-12-15,0.5293866737328936
2018-12-16,0.512792340046249
2018-12-17,0.5134577230439366
2018-12-18,0.5195948368917397
2018-12-19,0.5210350950471527
2018-12-20,0.5226383402947951
2018-12-21,0.5201614232800553
2018-12-22,0.5184133521160526
2018-12-23,0.51113768451025
2018-12-24,0.5127558002847374
2018-12-25,0.5264530102705005
2018-12-26,0.5158303597569756
2018-12-27,0.5178338417691268
2018-12-28,0.5319021496806704
2018-12-29,0.5248070421966368
2018-12-30,0.5165966900868049
2018-12-31,0.5114118555824646
2019-01-01,0.5033062628033413
2019-01-02,0.49098094966317424
2019-01-03,0.4808369021800155
2019-01-04,0.4692850570710147
2019-01-05,0.455095804217464
2019-01-06,0.45553101400659074
2019-01-07,0.44791946330626115
2019-01-08,0.4585384901409481
2019-01-09,0.4613815656339007
2019-01-10,0.4846324873522056
2019-01-11,0.4821258629845953
2019-01-12,0.4663045698353655
2019-01-13,0.46874434134359716
2019-01-14,0.4754771242764173
2019-01-15,0.4719432680625964
2019-01-16,0.46872610465946657
2019-01-17,0.4637697994264932
2019-01-18,0.4593163094551686
2019-01-19,0.45617549398241014
2019-01-20,0.4528367192832896
2019-01-21,0.4420048833191251
2019-01-22,0.4328446391531688
2019-01-23,0.42020740719551036
2019-01-24,0.4044670368357348
2019-01-25,0.39971368499394805
2019-01-26,0.39767800074425064
2019-01-27,0.39898410070703805
2019-01-28,0.4390248956716861
2019-01-29,0.4316686508881018
2019-01-30,0.4200302183436967
2019-01-31,0.4150037074265119
2019-02-01,0.42089352205518626
2019-02-02,0.4207338459524269
2019-02-03,0.4139571536548056
2019-02-04,0.4185092959720653
2019-02-05,0.448653831173462
2019-02-06,0.4842211396147889
2019-02-07,0.49967508263404947
2019-02-08,0.5361263285023469
2019-02-09,0.5351100120772295
2019-02-10,0.5320295114733681
2019-02-11,0.5438280358996996
2019-02-12,0.5655866341047147
2019-02-13,0.5656323023994788
2019-02-14,0.5695956872795049
2019-02-15,0.5796359029155297
2019-02-16,0.5652491077697532
2019-02-17,0.5534716523812656
2019-02-18,0.5519080697622023
2019-02-19,0.6067976662740922
2019-02-20,0.6215727829603875
2019-02-21,0.6307941438123681
2019-02-22,0.6283144366217498
2019-02-23,0.6193987147906622
2019-02-24,0.673423779051129
2019-02-25,0.6881325900985726
2019-02-26,0.673755960593644
2019-02-27,0.6725581625639617
2019-02-28,0.6740052544357636
2019-03-01,0.7075199917139755
2019-03-02,0.7221439921282767
2019-03-03,0.7200317925218629
2019-03-04,0.7169302028957697
2019-03-05,0.7988336927509812
2019-03-06,0.847042008113432
2019-03-07,0.8663399077077604
2019-03-08,0.9061029123223724
2019-03-09,0.9087527667062537
2019-03-10,0.895690128370941
2019-03-11,0.8953556219523939
2019-03-12,0.9129828408547743
2019-03-13,0.8896686988120357
2019-03-14,0.8718852638714338
2019-03-15,0.8462410006778621
2019-03-16,0.8599289506439689
2019-03-17,0.8428775031117705
2019-03-18,0.8299736279561818
2019-03-19,0.8284749465583727
2019-03-20,0.8114411992304541
2019-03-21,0.8427691392689315
2019-03-22,0.8503806823054849
2019-03-23,0.8325166481902107
2019-03-24,0.9328908157807001
2019-03-25,0.948146274991665
2019-03-26,0.9642339612420818
2019-03-27,0.9640222631799776
2019-03-28,0.9317111500209788
2019-03-29,0.9066105925199298
2019-03-30,0.9124700628939333
2019-03-31,0.9172065597492367
2019-04-01,0.9176312317617747
2019-04-02,0.9892346701736859
2019-04-03,1.0397729366650017
2019-04-04,1.0502842898317515
2019-04-05,1.0285100753401637
2019-04-06,1.0054145715731555
2019-04-07,0.9758288429944977
2019-04-08,0.9897324008447728
2019-04-09,1.016745780802534
2019-04-10,1.001748491762407
2019-04-11,1.0511560671742866
2019-04-12,1.0955982638155721
2019-04-13,1.0770933506247935
2019-04-14,1.0969436830935537
2019-04-15,1.098091498938876
2019-04-16,1.0952769239919322
2019-04-17,1.0670530777923355
2019-04-18,1.1419354239027188
2019-04-19,1.2661336527075828
2019-04-20,1.2896919700722036
2019-04-21,1.3471473715685933
2019-04-22,1.3606300029901637
2019-04-23,1.3997535028406556
2019-04-24,1.4418108276986228
2019-04-25,1.4657102863136917
2019-04-26,1.4992097719980069
2019-04-27,1.4609142833981064
2019-04-28,1.4273285692282007
2019-04-29,1.4461171407667905
2019-04-30,1.4223512837284509
2019-05-01,1.3826837195420283
2019-05-02,1.4324145335649268
2019-05-03,1.4088888068866803
2019-05-04,1.4132843665423462
2019-05-05,1.369440148215229
2019-05-06,1.3783331408044674
2019-05-07,1.4216664837642439
2019-05-08,1.4457581595760314
2019-05-09,1.4948102515972297
2019-05-10,1.5045097390173683
2019-05-11,1.5852842520665
2019-05-12,1.5760200394631747
2019-05-13,1.6604740374900158
2019-05-14,1.673710335615515
2019-05-15,1.799804818834739
2019-05-16,1.849314577893002
2019-05-17,1.9336438489983518
2019-05-18,2.036286656548434
2019-05-19,2.049162323721012
2019-05-20,2.0371692075349612
2019-05-21,2.1728107471582128
2019-05-22,2.155540209800302
2019-05-23,2.176768199310287
2019-05-24,2.2472647893447726
2019-05-25,2.2281865498775337
2019-05-26,2.2563272223836566
2019-05-27,2.2735158612644732
2019-05-28,2.2598400682012496
2019-05-29,2.298348064791187
2019-05-30,2.4189306615516277
2019-05-31,2.4161041284740463
2019-06-01,2.387828922050344
2019-06-02,2.3226724759478263
2019-06-03,2.3398038521504345
2019-06-04,2.3603386595429128
2019-06-05,2.354336726565767
2019-06-06,2.3546498902374786
2019-06-07,2.2914673957256046
2019-06-08,2.2361690259393243
2019-06-09,2.228805574642358
2019-06-10,2.23312529591024
2019-06-11,2.1790140311147277
2019-06-12,2.2290233295589914
2019-06-13,2.2300171630810417
2019-06-14,2.3927863049269895
2019-06-15,2.38592198968064
2019-06-16,2.344760890196608
2019-06-17,2.340712845686778
2019-06-18,2.290492203402439
2019-06-19,2.236272593232317
2019-06-20,2.250293963570701
2019-06-21,2.263459265392166
2019-06-22,2.274991302122557
2019-06-23,2.2248417370164293
2019-06-24,2.2046446501656076
2019-06-25,2.186462417657327
2019-06-26,2.2521392967744602
2019-06-27,2.299112331935737
2019-06-28,2.25720171533895
2019-06-29,2.272106629572002
2019-06-30,2.3330562980934015
2019-07-01,2.350493483188731
2019-07-02,2.4049688090292944
2019-07-03,2.3560703685778295
2019-07-04,2.3499468501489376
2019-07-05,2.2949345076414907
2019-07-06,2.214262782259416
2019-07-07,2.1535346431464455
2019-07-08,2.122947910989123
2019-07-09,2.100825515439667
2019-07-10,2.1147842396676833
2019-07-11,2.1902150276842987
2019-07-12,2.2617992763000836
2019-07-13,2.2628043124850796
2019-07-14,2.3104040968608257
2019-07-15,2.3164238920177844
2019-07-16,2.436472697416895
2019-07-17,2.52059406254605
2019-07-18,2.5295643594187474
2019-07-19,2.48529614144781
2019-07-20,2.4890313343754196
2019-07-21,2.4769797676566485
2019-07-22,2.502115779273816
2019-07-23,2.4766549903101254
2019-07-24,2.440977240794619
2019-07-25,2.379688378754888
2019-07-26,2.3049989598171434
2019-07-27,2.301954011826286
2019-07-28,2.258151311234972
2019-07-29,2.206328745673223
2019-07-30,2.1419023083895614
2019-07-31,2.087307192970083
2019-08-01,2.0487618333215787
2019-08-02,2.0040387416554997
2019-08-03,1.9458818045727246
2019-08-04,1.8829227143440883
2019-08-05,1.8387215786268838
2019-08-06,1.7957454996955393
2019-08-07,1.8383082247107625
2019-08-08,1.8807778134752242
2019-08-09,1.878408922801463
2019-08-10,1.8338234766613897
2019-08-11,1.79942230282832
2019-08-12,1.747981187686904
2019-08-13,1.723062128302559
2019-08-14,1.772874021887431
2019-08-15,1.7601003207930594
2019-08-16,1.7392603047534063
2019-08-17,1.701007289515736
2019-08-18,1.672386925039949
2019-08-19,1.6632425787879515
2019-08-20,1.6444754498485539
2019-08-21,1.649801677356126
2019-08-22,1.6232665934883197
2019-08-23,1.5814232638139036
2019-08-24,1.5497821006232082
2019-08-25,1.5137929955920475
2019-08-26,1.515133345812445
2019-08-27,1.5157916785218228
2019-08-28,1.5863020945957318
2019-08-29,1.6138019898659453
2019-08-30,1.5865018903726478
2019-08-31,1.5813917958540153
2019-09-01,1.5374622060613146
2019-09-02,1.5516040957582489
2019-09-03,1.5104488909703362
2019-09-04,1.4914214464218192
2019-09-05,1.527915374100728
2019-09-06,1.5387846053956915
2019-09-07,1.4988453751259068
2019-09-08,1.4605081063696113
2019-09-09,1.4249877010511307
2019-09-10,1.395048315998574
2019-09-11,1.4018509001986452
2019-09-12,1.397118355188713
2019-09-13,1.3691974374292772
2019-09-14,1.3246675655578133
2019-09-15,1.2974341872799224
2019-09-16,1.2786874779159263
2019-09-17,1.2852031040201297
2019-09-18,1.3322329488191234
2019-09-19,1.3874263013781674
2019-09-20,1.351849986309259
2019-09-21,1.316247486993796
2019-09-22,1.299995112644106
2019-09-23,1.2951253570119008
2019-09-24,1.4803690891613057
2019-09-25,1.4860356347032404
2019-09-26,1.5189588529680782
2019-09-27,1.4968609103196742
2019-09-28,1.4511078648036904
2019-09-29,1.4282274715635057
2019-09-30,1.4183460979853304
2019-10-01,1.379953793086064
2019-10-02,1.3304161034317608
2019-10-03,1.2978452982601725
2019-10-04,1.2634530333471639
2019-10-05,1.2210303816798056
2019-10-06,1.2014738625958152
2019-10-07,1.2050251694660246
2019-10-08,1.1750139109927233
2019-10-09,1.2221132154430872
2019-10-10,1.2053575546709328
2019-10-11,1.204589676937386
2019-10-12,1.1934051930905167
2019-10-13,1.2166799334359908
2019-10-14,1.1946659367641912
2019-10-15,1.1884326399259817
2019-10-16,1.1932260079296824
2019-10-17,1.1971947075331981
2019-10-18,1.1911749721565381
2019-10-19,1.160961223548711
2019-10-20,1.1461531623712753
2019-10-21,1.1192005042527113
2019-10-22,1.0997804790400758
2019-10-23,1.1522264550880719
2019-10-24,1.1340501323336682
2019-10-25,1.1953176257169849
2019-10-26,1.2222767444311355
2019-10-27,1.2189429072095788
2019-10-28,1.2524957618490995
2019-10-29,1.2612609737566445
2019-10-30,1.2826929250688122
2019-10-31,1.2694132788153714
2019-11-01,1.2258176148746027
2019-11-02,1.1815267341308724
2019-11-03,1.1516853974243288
2019-11-04,1.136676127553112
2019-11-05,1.1083423211754564
2019-11-06,1.0778802051166836
2019-11-07,1.0709361948608493
2019-11-08,1.0801643851178069
2019-11-09,1.0511861658619166
2019-11-10,1.0451568575688208
2019-11-11,1.0367990146903798
2019-11-12,1.0367340639558609
2019-11-13,1.0408973607580678
2019-11-14,1.0357574927201645
2019-11-15,1.0526646180841561
2019-11-16,1.0350263871799483
2019-11-17,1.017570067820951
2019-11-18,1.046391564429903
2019-11-19,1.054071986208408
2019-11-20,1.0501483868979877
2019-11-21,1.0926359675530883
2019-11-22,1.187764169175434
2019-11-23,1.197940960716662
2019-11-24,1.2183439126808289
2019-11-25,1.2514267170467872
2019-11-26,1.2364453811944478
2019-11-27,1.2568431121347252
2019-11-28,1.2314759565279891
2019-11-29,1.2114321587015897
2019-11-30,1.19218055076651
2019-12-01,1.1782665232281844
2019-12-02,1.149403197066775
2019-12-03,1.1108330372134363
2019-12-04,1.1079163853527643
2019-12-05,1.098220566085126
2019-12-06,1.0657995377808696
2019-12-07,1.027554560891826
2019-12-08,0.9946968328472345
2019-12-09,0.9757219912048728
2019-12-10,0.9642058916446291
2019-12-11,0.9359155970623977
2019-12-12,0.9140948172092779
2019-12-13,0.8842650763488139
2019-12-14,0.8819068225313731
2019-12-15,0.8556564814048044
2019-12-16,0.8717536573345642
2019-12-17,0.896360974467836
2019-12-18,0.9277829257444442
2019-12-19,0.9214287794572219
2019-12-20,0.8978123404843608
2019-12-21,0.8654217234601427
2019-12-22,0.8502506372871356
2019-12-23,0.8449731054227788
2019-12-24,0.8208094501516398
2019-12-25,0.8048789776440577
2019-12-26,0.7908150287618547
2019-12-27,0.771544277323762
2019-12-28,0.7561220634575738
2019-12-29,0.7504959602846952
2019-12-30,0.7429511622704604
2019-12-31,0.7266236041569373
2020-01-01,0.7012524239490904
2020-01-02,0.7036998027516358
2020-01-03,0.7070098126140539
2020-01-04,0.6896993219833513
2020-01-05,0.6813293558841836
2020-01-06,0.6957878880899744
2020-01-07,0.6975484936854756
2020-01-08,0.7186710690012018
2020-01-09,0.7018025155511417
2020-01-10,0.7160773897735847
2020-01-11,0.7107185202849055
2020-01-12,0.7087125942706602
2020-01-13,0.6946619645571271
2020-01-14,0.7471338663292707
2020-01-15,0.8057771730128073
2020-01-16,0.834603314362167
2020-01-17,0.8654531486440585
2020-01-18,0.8676904912118555
2020-01-19,0.9157259666512627
2020-01-20,0.9073046683186995
2020-01-21,0.9107994349027645
2020-01-22,0.9077594631576261
2020-01-23,0.9168864899997448
2020-01-24,0.9217471654997575
2020-01-25,0.9033098072247697
2020-01-26,0.8915193168635313
2020-01-27,0.8834533510203547
2020-01-28,0.8749506834693369
2020-01-29,0.86293814929587
2020-01-30,0.8699262418310765
2020-01-31,0.8804299297395225
2020-02-01,0.8646884332525463
2020-02-02,0.868639011589919
2020-02-03,0.8592270610104229
2020-02-04,0.8535557079599017
2020-02-05,0.8756179225619066
2020-02-06,0.9223370264338112
2020-02-07,0.9763301751121205
2020-02-08,0.9922986663565144
2020-02-09,1.0730237330386887
2020-02-10,1.1440475463867543
2020-02-11,1.1678351690674165
2020-02-12,1.1884134106140456
2020-02-13,1.2585427400833433
2020-02-14,1.269745603079176
2020-02-15,1.3544733229252173
2020-02-16,1.4591746567789563
2020-02-17,1.4886659239400086
2020-02-18,1.4971076277430082
2020-02-19,1.5485722463558578
2020-02-20,1.5548486340380647
2020-02-21,1.5319162023361614
2020-02-22,1.4978203922193534
2020-02-23,1.4755543726083857
2020-02-24,1.4903066539779664
2020-02-25,1.5170713212790679
2020-02-26,1.5721727552151146
2020-02-27,1.5908041174543586
2020-02-28,1.6037539115816406
2020-02-29,1.6035662160025583
2020-03-01,1.5939579052024304
2020-03-02,1.579955009942309
2020-03-03,1.5545022594451936
2020-03-04,1.5153571464729338
2020-03-05,1.5155092891492872
2020-03-06,1.4963588246918227
2020-03-07,1.5101258834572313
2020-03-08,1.6111045892843696
2020-03-09,1.6235843598201511
2020-03-10,1.5992451418291436
2020-03-11,1.6057228847376863
2020-03-12,1.910936740500802
2020-03-13,2.0742499034757618
2020-03-14,2.0417074083019737
2020-03-15,2.004002037886875
2020-03-16,2.001451935992531
2020-03-17,1.9595543391929044
2020-03-18,1.900386622233259
2020-03-19,1.928522291121596
2020-03-20,1.9945261765655162
2020-03-21,1.9532948677372404
2020-03-22,1.9286751243503784
2020-03-23,1.9146063681328593
2020-03-24,1.852546049726216
2020-03-25,1.7926537472399051
2020-03-26,1.75634605987791
2020-03-27,1.7288037568840144
2020-03-28,1.6782335690398138
2020-03-29,1.6426968905878232
2020-03-30,1.619187046058432
2020-03-31,1.5689376937555102
2020-04-01,1.5294208090677346
2020-04-02,1.5130147686143478
2020-04-03,1.4703340301836303
2020-04-04,1.4410023286744489
2020-04-05,1.3971322122407264
2020-04-06,1.4061656016286899
2020-04-07,1.3978423215472553
2020-04-08,1.3668802054698923
2020-04-09,1.3271961951963975
2020-04-10,1.3413213854365775
2020-04-11,1.3021253161647486
2020-04-12,1.2968190503565111
2020-04-13,1.3045280978386857
2020-04-14,1.2979016929467513
2020-04-15,1.3028816082994135
2020-04-16,1.3202825278844428
2020-04-17,1.2877634014902206
2020-04-18,1.2830802314157097
2020-04-19,1.2610462198449244
2020-04-20,1.279393908852678
2020-04-21,1.2527792134100442
2020-04-22,1.234730252739542
2020-04-23,1.225813740102565
2020-04-24,1.1933630530974366
2020-04-25,1.1664149004425646
2020-04-26,1.1282691554204363
2020-04-27,1.0967056976494145
2020-04-28,1.0607454127669438
2020-04-29,1.0685631421285964
2020-04-30,1.0970199850221665
2020-05-01,1.0880189857710583
2020-05-02,1.0491780364825056
2020-05-03,1.0436641346583801
2020-05-04,1.0450359279254609
2020-05-05,1.0274491315291876
2020-05-06,1.0182366749527283
2020-05-07,1.0232348412050918
2020-05-08,1.0008080991448371
2020-05-09,0.9887476941875951
2020-05-10,1.0831653094782152
2020-05-11,1.1058470440043044
2020-05-12,1.114624691804089
2020-05-13,1.0924684572138845
2020-05-14,1.0721400343531902
2020-05-15,1.0690980326355308
2020-05-16,1.048478131003754
2020-05-17,1.0214842244535665
2020-05-18,1.000955013230888
2020-05-19,0.9983472625693435
2020-05-20,0.9911548994408764
2020-05-21,1.0088821544688324
2020-05-22,1.0089130467453908
2020-05-23,0.9849573944081214
2020-05-24,0.9798395246877152
2020-05-25,0.9613675484533294
2020-05-26,0.9405091710306629
2020-05-27,0.9112137124791297
2020-05-28,0.9032280268551732
2020-05-29,0.8863016255124146
2020-05-30,0.8848165442367939
2020-05-31,0.9082507170249542
2020-06-01,0.9197781811737065
2020-06-02,0.9497892721150211
2020-06-03,0.93544980850927
2020-06-04,0.9191923180838064
2020-06-05,0.896247702179616
2020-06-06,0.8666903170706353
2020-06-07,0.8625808012171036
2020-06-08,0.8337517611562485
2020-06-09,0.8156841730984359
2020-06-10,0.7975649644435142
2020-06-11,0.8371417162213386
2020-06-12,0.8309346304102717
2020-06-13,0.8057828988897583
2020-06-14,0.7873687539452703
2020-06-15,0.8079103162480067
2020-06-16,0.7921098004356063
2020-06-17,0.785559310413826
2020-06-18,0.7794813448931348
2020-06-19,0.7612072776484781
2020-06-20,0.7426369137660541
2020-06-21,0.7262450680777514
2020-06-22,0.7199378146738639
2020-06-23,0.6982909239401706
2020-06-24,0.698281377743162
2020-06-25,0.692447308856004
2020-06-26,0.6792299434132036
2020-06-27,0.6988384462425433
2020-06-28,0.6923715239304161
2020-06-29,0.6770579477338952
2020-06-30,0.6579900503472004
2020-07-01,0.6527155478298403
2020-07-02,0.6653447704383483
2020-07-03,0.6440575319164308
2020-07-04,0.6326546553206093
2020-07-05,0.6266969225545788
2020-07-06,0.6408370764268497
2020-07-07,0.6510752226055071
2020-07-08,0.6628564614752316
2020-07-09,0.68427363840147
2020-07-10,0.6944199564813964
2020-07-11,0.6932389586573265
2020-07-12,0.7084370107244602
2020-07-13,0.7366001601882372
2020-07-14,0.7469401521788253
2020-07-15,0.7463131445698841
2020-07-16,0.7697224873413898
2020-07-17,0.7585913629743203
2020-07-18,0.7462867948256042
2020-07-19,0.7693724550843238
2020-07-20,0.7861538323301076
2020-07-21,0.7758411407136023
2020-07-22,0.7703040836779224
2020-07-23,0.7681388794940261
2020-07-24,0.7954819355193249
2020-07-25,0.8006228387433585
2020-07-26,0.8218966968061905
2020-07-27,0.870796861965881
2020-07-28,0.8900220188675869
2020-07-29,0.8789559179242075
2020-07-30,0.864428122027997
2020-07-31,0.8684467159265972
2020-08-01,0.8865243801302671
2020-08-02,0.9963581611237537
2020-08-03,1.036540253067566
2020-08-04,1.0363782404141877
2020-08-05,1.0587293283934782
2020-08-06,1.0465428619738044
2020-08-07,1.0716357188751142
2020-08-08,1.0714039329313585
2020-08-09,1.0616937362847905
2020-08-10,1.0447990494705508
2020-08-11,1.0960890969970232
2020-08-12,1.1118346421471719
2020-08-13,1.1170429100398132
2020-08-14,1.1632857645378223
2020-08-15,1.159541476310931
2020-08-16,1.1555144024953845
2020-08-17,1.1453186823706152
2020-08-18,1.1604027482520844
2020-08-19,1.17378761083948
2020-08-20,1.178773230297506
2020-08-21,1.2108345687826307
2020-08-22,1.198542840343499
2020-08-23,1.1861506983263241
2020-08-24,1.1922981634100076
2020-08-25,1.2157332552395073
2020-08-26,1.215406592477532
2020-08-27,1.2218512628536553
2020-08-28,1.2091986997109723
2020-08-29,1.1866587647254239
2020-08-30,1.1738258264891526
2020-08-31,1.161784535164695
2020-09-01,1.2321953084064603
2020-09-02,1.3058205429861371
2020-09-03,1.52370451583683
2020-09-04,1.5790192900449884
2020-09-05,1.677213325542739
2020-09-06,1.8390276592656019
2020-09-07,1.924801276302322
2020-09-08,1.9358662124872057
2020-09-09,1.9443829018628451
2020-09-10,1.927823756769703
2020-09-11,1.9628925689312178
2020-09-12,2.0233979404846565
2020-09-13,2.1637330434604234
2020-09-14,2.274986391287402
2020-09-15,2.389522071723032
2020-09-16,2.4026659681368803
2020-09-17,2.421532669730036
2020-09-18,2.409416036243534
2020-09-19,2.3548402344313577
2020-09-20,2.3468632227097896
2020-09-21,2.4585200615743004
2020-09-22,2.4305140584955853
2020-09-23,2.403603355570806
2020-09-24,2.3901131877922657
2020-09-25,2.339047528402652
2020-09-26,2.3214851519825195
2020-09-27,2.275350894383393
2020-09-28,2.256018349664223
2020-09-29,2.250217432181012
2020-09-30,2.2218715605719614
2020-10-01,2.2698579825433636
2020-10-02,2.291270083416195
2020-10-03,2.243186579245385
2020-10-04,2.1902372502831153
2020-10-05,2.1406153877689595
2020-10-06,2.1205846183805113
2020-10-07,2.0673753874614857
2020-10-08,2.029776618088411
2020-10-09,1.9823877871839906
2020-10-10,1.944008397824791
2020-10-11,1.8890079779335511
2020-10-12,1.9293625790368734
2020-10-13,1.9135394500850298
2020-10-14,1.865697477580778
2020-10-15,1.8357776037017388
2020-10-16,1.8644537235166518
2020-10-17,1.8168260373408192
2020-10-18,1.769504735473778
2020-10-19,1.7298494987000892
2020-10-20,1.7228170237650848
2020-10-21,1.7250161725768307
2020-10-22,1.7204903639479892
2020-10-23,1.6912058457505896
2020-10-24,1.6293355534630602
2020-10-25,1.6024737757899072
2020-10-26,1.5958500870004118
2020-10-27,1.589997582650391
2020-10-28,1.6173727035178713
2020-10-29,1.5843640683419777
2020-10-30,1.6425708649248787
2020-10-31,1.599182321678635
2020-11-01,1.553173205594703
2020-11-02,1.551999545314968
2020-11-03,1.5768245680492194
2020-11-04,1.5514833396467584
2020-11-05,1.5356391726644205
2020-11-06,1.5489772140311997
2020-11-07,1.6239783533296397
2020-11-08,1.6050444356631575
2020-11-09,1.6059422138799995
2020-11-10,1.5694751031859995
2020-11-11,1.5311663480266995
2020-11-12,1.4974630306253642
2020-11-13,1.472159879094096
2020-11-14,1.4400018851393908
2020-11-15,1.4261617908824211
2020-11-16,1.3935587013382997
2020-11-17,1.3675707662713847
2020-11-18,1.3660922279578154
2020-11-19,1.3352026165599242
2020-11-20,1.333032485731928
2020-11-21,1.3916058614453315
2020-11-22,1.428025568373065
2020-11-23,1.4223242899544117
2020-11-24,1.5685380754566913
2020-11-25,1.7398511716838565
2020-11-26,1.9238986130996636
2020-11-27,1.9033686824446805
2020-11-28,1.8940752483224466
2020-11-29,1.879151485906324
2020-11-30,1.879038911611008
2020-12-01,1.9209619660304575
2020-12-02,1.8983488677289346
2020-12-03,1.8502414243424878
2020-12-04,1.8793293531253632
2020-12-05,1.8553628854690951
2020-12-06,1.8210697411956402
2020-12-07,1.7604412541358583
2020-12-08,1.7749091914290653
2020-12-09,1.759208731857612
2020-12-10,1.7167332952647312
2020-12-11,1.6830316305014945
2020-12-12,1.6476700489764196
2020-12-13,1.6284265465275984
2020-12-14,1.6230802192012186
2020-12-15,1.5955312082411577
2020-12-16,1.5951296478291
2020-12-17,1.6083631654376447
2020-12-18,1.6083050071657623
2020-12-19,1.6953647568074741
2020-12-20,1.7656015189671002
2020-12-21,1.8829664430187452
2020-12-22,1.9552231208678075
2020-12-23,2.082711964824417
2020-12-24,2.116521366583196
2020-12-25,2.0989002982540357
2020-12-26,2.070930283341334
2020-12-27,2.1238787691742673
2020-12-28,2.1596598307155537
2020-12-29,2.2865968391797757
2020-12-30,2.295111997220787
2020-12-31,2.265236397359747
2021-01-01,2.25214957749176
2021-01-02,2.2435320986171723
2021-01-03,2.328290493686314
2021-01-04,2.471070969001998
2021-01-05,2.499322420551898
2021-01-06,2.465051299524303
2021-01-07,2.518498734548088
2021-01-08,2.5671087978206835
2021-01-09,2.566513357929649
2021-01-10,2.6962876900331665
2021-01-11,2.935073305531508
2021-01-12,2.9482646402549326
2021-01-13,2.9723464082421858
2021-01-14,2.9450340878300763
2021-01-15,2.9928123834385723
2021-01-16,3.0179217642666436
2021-01-17,3.157205676053312
2021-01-18,3.1423953922506462
2021-01-19,3.2612106226381132
2021-01-20,3.2431100915062077
2021-01-21,3.3068345869308966
2021-01-22,3.3753028575843516
2021-01-23,3.3277627147051336
2021-01-24,3.255654578969877
2021-01-25,3.2372568500213834
2021-01-26,3.2205190075203136
2021-01-27,3.183903057144298
2021-01-28,3.163107904287083
2021-01-29,3.1148675090727287
2021-01-30,3.0849241336190927
2021-01-31,3.057022926938138
2021-02-01,3.351196780591231
2021-02-02,3.375776941561669
2021-02-03,3.352873094483586
2021-02-04,3.4754644397594068
2021-02-05,3.9421812177714366
2021-02-06,4.435072156882864
2021-02-07,4.74529854903872
2021-02-08,5.121388621586784
2021-02-09,6.775414190507445
2021-02-10,8.492588480982073
2021-02-11,8.821514056932969
2021-02-12,9.40193835408632
2021-02-13,9.607176436382005
2021-02-14,9.653742614562905
2021-02-15,10.23950548383476
2021-02-16,10.102155209643021
2021-02-17,12.059302449160871
2021-02-18,13.310492326702827
2021-02-19,20.333417710367687
2021-02-20,24.9167468248493
2021-02-21,26.660664483606837
2021-02-22,29.102631259426495
2021-02-23,31.814699696455172
2021-02-24,33.622679711632415
2021-02-25,33.63661572605079
2021-02-26,33.46953493974825
2021-02-27,32.73400819276084
2021-02-28,32.8173077831228
2021-03-01,33.72042239396666
2021-03-02,33.92940127426832
2021-03-03,33.1752362105549
2021-03-04,32.739359400027155
2021-03-05,31.930196430025795
2021-03-06,31.001096608524506
2021-03-07,30.40083177809828
2021-03-08,29.600575189193364
2021-03-09,31.205351429733692
2021-03-10,31.229163858247006
2021-03-11,31.825980665334654
2021-03-12,32.38194663206792
2021-03-13,32.206104300464524
2021-03-14,31.290019085441298
2021-03-15,30.63614813116923
2021-03-16,30.083625724610762
2021-03-17,29.778374438380222
2021-03-18,29.32895571646121
2021-03-19,28.562507930638148
2021-03-20,27.798407534106243
2021-03-21,26.960007157400934
2021-03-22,26.816186799530886
2021-03-23,26.031977459554344
2021-03-24,26.14902358657663
2021-03-25,26.097702407247795
2021-03-26,25.8628122868854
2021-03-27,25.89466667254113
2021-03-28,25.619628338914072
2021-03-29,25.014786921968366
2021-03-30,25.776387575869947
2021-03-31,26.12255319707645
2021-04-01,26.731425537222623
2021-04-02,27.013454260361492
2021-04-03,27.324016547343415
2021-04-04,27.774190719976243
2021-04-05,28.59327118397743
2021-04-06,29.559692624778556
2021-04-07,31.000722993539625
2021-04-08,31.993301843862643
2021-04-09,32.933821751669505
2021-04-10,33.15744066408603
2021-04-11,35.059293630881726
2021-04-12,39.479693949337644
2021-04-13,41.13362425187076
2021-04-14,42.54722303927722
2021-04-15,41.57903188731336
2021-04-16,42.3936702929477
2021-04-17,42.371486778300316
2021-04-18,44.8740974393853
2021-04-19,46.23616256741604
2021-04-20,49.88900443904523
2021-04-21,51.29349921709297
2021-04-22,53.86407925623832
2021-04-23,55.1708752934264
2021-04-24,54.73751152875508
2021-04-25,53.987135952317324
2021-04-26,53.71277915470145
2021-04-27,53.75214019696638
2021-04-28,53.108533187118056
2021-04-29,53.51760652776215
2021-04-30,52.955726201374034
2021-05-01,52.12593989130533
2021-05-02,51.20464289674006
2021-05-03,51.58341075190306
2021-05-04,52.682740214307906
2021-05-05,52.63210320359251
2021-05-06,51.68899804341288
2021-05-07,50.73404814124223
2021-05-08,50.17484573418012
2021-05-09,50.08910344747111
2021-05-10,52.77314827509755
2021-05-11,52.728990861342666
2021-05-12,55.26804131827553
2021-05-13,57.84963925236175
2021-05-14,57.40715728974366
2021-05-15,57.102299425256476
2021-05-16,57.842184453993646
2021-05-17,59.03307523129396
2021-05-18,58.28142146972926
2021-05-19,67.19235039624279
2021-05-20,70.81073287643065
2021-05-21,74.3556962326091
2021-05-22,73.20141142097866
2021-05-23,74.62884084992973
2021-05-24,75.52739880743323
2021-05-25,75.32652886706157
2021-05-26,74.16370242370849
2021-05-27,72.83351730252306
2021-05-28,72.2608414373969
2021-05-29,71.23679936552706
2021-05-30,70.0379593972507
2021-05-31,68.95856142738816
2021-06-01,66.75663335601874
2021-06-02,66.8688016882178
2021-06-03,65.6093616038069
2021-06-04,65.55389352361655
2021-06-05,64.88619884743572
2021-06-06,62.58138890506393
2021-06-07,62.146819459810736
2021-06-08,61.396978486820196
2021-06-09,60.58762956247919
2021-06-10,59.22924808435523
2021-06-11,57.53978568013746
2021-06-12,55.84179639613059
2021-06-13,54.97570657632406
2021-06-14,53.33992124750785
2021-06-15,51.49042518513245
2021-06-16,50.08690392587582
2021-06-17,48.413558729582036
2021-06-18,47.48788079310293
2021-06-19,45.80798675344778
2021-06-20,45.03958741577539
2021-06-21,46.459108044986614
2021-06-22,47.44015264273728
2021-06-23,47.98514501060042
2021-06-24,47.3353877600704
2021-06-25,46.948618372066875
2021-06-26,45.90468745346353
2021-06-27,44.70845308079035
2021-06-28,43.29353042675083
2021-06-29,42.44935390541329
2021-06-30,41.49438621014263
2021-07-01,40.56966689963549
2021-07-02,39.25818355465371
2021-07-03,38.31727437692102
2021-07-04,37.51791065807497
2021-07-05,36.47601512517122
2021-07-06,35.687214368912656
2021-07-07,34.99135365046702
2021-07-08,34.43228596794366
2021-07-09,33.623671669546475
2021-07-10,32.48598808606915
2021-07-11,31.592188681765688
2021-07-12,31.3025792476774
2021-07-13,30.39395028529353
2021-07-14,30.03525277102885
2021-07-15,29.68399013247741
2021-07-16,29.29979062585354
2021-07-17,28.420301094560863
2021-07-18,27.52328603983282
2021-07-19,27.401621737841175
2021-07-20,27.485540650949115
2021-07-21,28.00626361840166
2021-07-22,27.162950437481577
2021-07-23,26.829302915607496
2021-07-24,26.105837769827122
2021-07-25,25.405545881335765
2021-07-26,25.485268587268976
2021-07-27,25.251005157905524
2021-07-28,24.522454900010246
2021-07-29,23.881832155009732
2021-07-30,23.662740547259247
2021-07-31,23.541103519896286
2021-08-01,23.30454834390147
2021-08-02,22.7453209267064
2021-08-03,22.49355488037108
2021-08-04,22.249377136352525
2021-08-05,21.976908279534896
2021-08-06,21.679062865558148
2021-08-07,21.56510972228024
2021-08-08,21.630354236166227
2021-08-09,21.776336524357912
2021-08-10,22.117519698140015
2021-08-11,22.893143713233016
2021-08-12,23.477986527571368
2021-08-13,23.731587201192795
2021-08-14,23.485007841133157
2021-08-15,23.2747574490765
2021-08-16,23.42151957662267
2021-08-17,24.10044359779154
2021-08-18,24.23992141790196
2021-08-19,25.068425347006862
2021-08-20,25.623004079656518
2021-08-21,25.16835387567369
2021-08-22,24.938436181890008
2021-08-23,26.882514372795505
2021-08-24,27.692388654155728
2021-08-25,28.157769221447943
2021-08-26,29.136880760375547
2021-08-27,29.075036722356767
2021-08-28,28.356284886238928
2021-08-29,27.96347064192698
2021-08-30,27.760297109830628
2021-08-31,27.852282254339094
2021-09-01,28.204668141622136
2021-09-02,28.12943473454103
2021-09-03,27.822962997813978
2021-09-04,27.666814847923277
2021-09-05,27.123474105527112
2021-09-06,26.872300400250754
2021-09-07,32.318685380238215
2021-09-08,32.8627511112263
2021-09-09,32.85461355566499
2021-09-10,33.52188287788174
2021-09-11,32.64578873398765
2021-09-12,32.21849929728827
2021-09-13,32.44257433242385
2021-09-14,31.770445615802657
2021-09-15,31.601923335012522
2021-09-16,30.991827168261892
2021-09-17,30.722235809848797
2021-09-18,30.111124019356357
2021-09-19,29.415567818388535
2021-09-20,30.76478942746911
2021-09-21,31.186549956095654
2021-09-22,31.50722245829087
2021-09-23,30.711861335376327
2021-09-24,31.76126826860751
2021-09-25,31.053204855177135
2021-09-26,31.150544612418276
2021-09-27,30.723017381797362
2021-09-28,29.916866512707493
2021-09-29,30.631023187072117
2021-09-30,30.21947202771851
2021-10-01,30.80349842633258
2021-10-02,30.64332350501595
2021-10-03,29.896157329765153
2021-10-04,29.401349463276894
2021-10-05,28.93128199011305
2021-10-06,28.889717890607397
2021-10-07,28.765231996077027
2021-10-08,28.621970396273177
2021-10-09,27.690871876459518
2021-10-10,27.321328282636543
2021-10-11,27.165261868504714
2021-10-12,28.42199877507948
2021-10-13,28.975898836325506
2021-10-14,28.60710389450923
2021-10-15,28.536748699783768
2021-10-16,30.19491126479458
2021-10-17,29.59516570155485
2021-10-18,29.17540741647711
2021-10-19,28.581637045653256
2021-10-20,28.38255519337059
2021-10-21,28.90842743370206
2021-10-22,28.828006062016957
2021-10-23,28.041605758916106
2021-10-24,27.574525470970297
2021-10-25,26.89079919742178
2021-10-26,26.361259237550694
2021-10-27,27.598196275673157
2021-10-28,28.6382864618895
2021-10-29,29.506872138795025
2021-10-30,29.546528531855273
2021-10-31,29.37420210526251
2021-11-01,29.95049199999938
2021-11-02,29.78296739999941
2021-11-03,29.923819029999443
2021-11-04,29.692628078499467
2021-11-05,31.34799667457449
2021-11-06,31.91559684084576
2021-11-07,32.25981699880347
2021-11-08,31.8818261488633
2021-11-09,31.527734841420138
2021-11-10,34.44634809934913
2021-11-11,34.199030694381676
2021-11-12,34.079079159662584
2021-11-13,34.14512520167945
2021-11-14,33.76286894159548
2021-11-15,33.534725494515705
2021-11-16,34.93298921978992
2021-11-17,35.13133975880042
2021-11-18,37.2847727708604
2021-11-19,38.50053413231738
2021-11-20,38.18550742570151
2021-11-21,37.556232054416434
2021-11-22,37.26342045169561
2021-11-23,37.75524942911083
2021-11-24,36.74248695765529
2021-11-25,38.03536260977253
2021-11-26,40.818594479283895
2021-11-27,40.71266475531969
2021-11-28,40.742031517553706
2021-11-29,40.07492994167602
2021-11-30,39.69118344459221
2021-12-01,39.2866242723626
2021-12-02,38.59229305874447
2021-12-03,39.362678405807245
2021-12-04,42.734544485516885
2021-12-05,42.702817261241044
2021-12-06,43.56767639817899
2021-12-07,42.484292578270036
2021-12-08,42.39007794935653
2021-12-09,42.7355740518887
2021-12-10,42.84379534929426
2021-12-11,42.23660558182955
2021-12-12,40.89977530273807
2021-12-13,41.909786537601164
2021-12-14,41.1192972107211
2021-12-15,41.318332350185045
2021-12-16,40.27741573267579
2021-12-17,39.503544946042
2021-12-18,38.6683676987399
2021-12-19,37.599949313802895
2021-12-20,37.179951848112744
2021-12-21,36.61595425570711
2021-12-22,35.675156542921755
2021-12-23,35.30639871577567
2021-12-24,34.391078779986884
2021-12-25,33.24152484098754
2021-12-26,32.26444859893816
2021-12-27,32.09622616899125
2021-12-28,32.25641486054169
2021-12-29,32.1535941175146
2021-12-30,31.520914411638866
2021-12-31,31.05986869105692
2022-01-01,30.331875256504073
2022-01-02,29.610281493678865
2022-01-03,29.269767418994917
2022-01-04,28.706279048045168
2022-01-05,30.220965095642907
2022-01-06,29.83491684086076
2022-01-07,30.163170998817723
2022-01-08,30.890012448876835
2022-01-09,30.220511826432993
2022-01-10,30.70448623511134
2022-01-11,31.489261923355773
2022-01-12,31.579798827187982
2022-01-13,31.165808885828582
2022-01-14,30.842518441537152
2022-01-15,30.09539251946029
2022-01-16,29.460622893487272
2022-01-17,29.59759174881291
2022-01-18,29.237712161372265
2022-01-19,28.745826553303655
2022-01-20,29.333535225638467
2022-01-21,31.411858464356545
2022-01-22,32.50626554113872
2022-01-23,32.51595226408178
2022-01-24,33.29015465087769
2022-01-25,33.230646918333804
2022-01-26,33.36911457241711
2022-01-27,33.39065884379625
2022-01-28,32.72612590160644
2022-01-29,31.919819606526115
2022-01-30,31.19382862619981
2022-01-31,30.644137194889815
2022-02-01,29.846930335145323
2022-02-02,29.354583818388058
2022-02-03,28.52685462746865
2022-02-04,28.610511896095215
2022-02-05,28.91498630129045
2022-02-06,28.244236986225925
2022-02-07,28.117025136914627
2022-02-08,28.671173880068896
2022-02-09,28.26761518606545
2022-02-10,28.099234426762173
2022-02-11,28.11427270542406
2022-02-12,27.398559070152857
2022-02-13,26.683631116645213
2022-02-14,26.04444956081295
2022-02-15,26.757227082772303
2022-02-16,25.984365728633687
2022-02-17,26.240147442202
2022-02-18,25.8681400700919
2022-02-19,25.2447330665873
2022-02-20,25.232496413257934
2022-02-21,25.905871592595034
2022-02-22,25.94557801296528
2022-02-23,25.593299112317016
2022-02-24,26.703634156701163
2022-02-25,26.388452448866104
2022-02-26,25.8490298264228
2022-02-27,25.711578335101656
2022-02-28,26.49599941834657
2022-03-01,26.896199447429243
2022-03-02,26.146389475057777
2022-03-03,25.629070001304886
2022-03-04,25.922616501239638
2022-03-05,25.631485676177657
2022-03-06,25.134911392368775
2022-03-07,25.033165822750334
2022-03-08,24.451507531612815
2022-03-09,24.313932155032173
2022-03-10,24.673235547280562
2022-03-11,24.204573769916532
2022-03-12,23.3993450814207
2022-03-13,23.084377827349662
2022-03-14,22.650158935982176
2022-03-15,22.167650989183066
2022-03-16,21.999268439723913
2022-03-17,21.489305017737717
2022-03-18,21.21483976685083
2022-03-19,20.729097778508287
2022-03-20,20.42264288958287
2022-03-21,20.136510745103728
2022-03-22,19.889685207848537
2022-03-23,19.58520094745611
2022-03-24,19.185940900083303
2022-03-25,19.026643855079136
2022-03-26,18.520311662325177
2022-03-27,18.589296079208918
2022-03-28,18.32983127524847
2022-03-29,18.02333971148605
2022-03-30,17.167172725911744
